
  Input Parameters of the Scattering Problem:

  wavelength of the ambient medium, wavelength =    5.5000E+02;
  axisymmetric particle;
  name of the file containing the T matrix, FileTmat = T_matrix_spheroid.dat                                                           
  maximum expansion order, Nrank =   5;
  maximum azimuthal order, Mrank =   4;
  average over Euler orientation angles:
  alphamin =   45.00, alphamax =   45.00, Nalpha =   1,
  betamin  =   45.00, betamax  =   45.00, Nbeta  =   1;
  plane wave excitation;
  incident direction, thetaGI =    0.00, phiGI =    0.00;
  beta  polarization vector = ( 1.000E+00, 0.000E+00)
  alpha polarization vector = ( 1.000E+00, 0.000E+00)
  scattering plane, phiGS =    0.00;
  characteristic length of the scatterer, anorm =  1.000E+00;
  normalization constant, pi * anorm**2 =    3.1416E+00;


  Results:

  Cross Sections and Efficiencies:
  <Cscat> =    2.3863E+05     <Qscat> =    7.5957E+04
  <Cext>  =    2.3862E+05     <Qext>  =    7.5956E+04

  Differential Scattering Cross Section:
  normalized average  differential scattering cross section
  theta         parallel        perpendicular

   0.00        8.7199E+03        8.7199E+03
   1.00        8.7361E+03        8.7081E+03
   2.00        8.7489E+03        8.6930E+03
   3.00        8.7581E+03        8.6746E+03
   4.00        8.7638E+03        8.6530E+03
   5.00        8.7660E+03        8.6280E+03
   6.00        8.7647E+03        8.5998E+03
   7.00        8.7599E+03        8.5683E+03
   8.00        8.7516E+03        8.5335E+03
   9.00        8.7398E+03        8.4955E+03
  10.00        8.7246E+03        8.4542E+03
  11.00        8.7060E+03        8.4098E+03
  12.00        8.6841E+03        8.3621E+03
  13.00        8.6588E+03        8.3114E+03
  14.00        8.6303E+03        8.2575E+03
  15.00        8.5986E+03        8.2005E+03
  16.00        8.5638E+03        8.1405E+03
  17.00        8.5260E+03        8.0776E+03
  18.00        8.4852E+03        8.0117E+03
  19.00        8.4415E+03        7.9429E+03
  20.00        8.3950E+03        7.8713E+03
  21.00        8.3458E+03        7.7970E+03
  22.00        8.2940E+03        7.7200E+03
  23.00        8.2398E+03        7.6404E+03
  24.00        8.1831E+03        7.5582E+03
  25.00        8.1242E+03        7.4736E+03
  26.00        8.0631E+03        7.3866E+03
  27.00        8.0000E+03        7.2973E+03
  28.00        7.9350E+03        7.2058E+03
  29.00        7.8681E+03        7.1121E+03
  30.00        7.7996E+03        7.0164E+03
  31.00        7.7296E+03        6.9188E+03
  32.00        7.6581E+03        6.8193E+03
  33.00        7.5853E+03        6.7180E+03
  34.00        7.5114E+03        6.6151E+03
  35.00        7.4364E+03        6.5106E+03
  36.00        7.3605E+03        6.4047E+03
  37.00        7.2838E+03        6.2974E+03
  38.00        7.2064E+03        6.1889E+03
  39.00        7.1285E+03        6.0792E+03
  40.00        7.0502E+03        5.9685E+03
  41.00        6.9715E+03        5.8568E+03
  42.00        6.8927E+03        5.7443E+03
  43.00        6.8137E+03        5.6311E+03
  44.00        6.7348E+03        5.5172E+03
  45.00        6.6560E+03        5.4029E+03
  46.00        6.5774E+03        5.2881E+03
  47.00        6.4992E+03        5.1730E+03
  48.00        6.4213E+03        5.0576E+03
  49.00        6.3440E+03        4.9422E+03
  50.00        6.2672E+03        4.8268E+03
  51.00        6.1911E+03        4.7114E+03
  52.00        6.1156E+03        4.5963E+03
  53.00        6.0410E+03        4.4814E+03
  54.00        5.9673E+03        4.3669E+03
  55.00        5.8944E+03        4.2528E+03
  56.00        5.8225E+03        4.1393E+03
  57.00        5.7516E+03        4.0265E+03
  58.00        5.6818E+03        3.9144E+03
  59.00        5.6131E+03        3.8030E+03
  60.00        5.5454E+03        3.6926E+03
  61.00        5.4789E+03        3.5832E+03
  62.00        5.4136E+03        3.4747E+03
  63.00        5.3495E+03        3.3674E+03
  64.00        5.2865E+03        3.2613E+03
  65.00        5.2248E+03        3.1564E+03
  66.00        5.1642E+03        3.0528E+03
  67.00        5.1049E+03        2.9506E+03
  68.00        5.0467E+03        2.8498E+03
  69.00        4.9898E+03        2.7505E+03
  70.00        4.9340E+03        2.6528E+03
  71.00        4.8793E+03        2.5566E+03
  72.00        4.8259E+03        2.4620E+03
  73.00        4.7735E+03        2.3692E+03
  74.00        4.7222E+03        2.2780E+03
  75.00        4.6720E+03        2.1886E+03
  76.00        4.6229E+03        2.1010E+03
  77.00        4.5747E+03        2.0152E+03
  78.00        4.5276E+03        1.9312E+03
  79.00        4.4813E+03        1.8491E+03
  80.00        4.4360E+03        1.7690E+03
  81.00        4.3916E+03        1.6907E+03
  82.00        4.3479E+03        1.6144E+03
  83.00        4.3051E+03        1.5400E+03
  84.00        4.2630E+03        1.4676E+03
  85.00        4.2217E+03        1.3972E+03
  86.00        4.1810E+03        1.3288E+03
  87.00        4.1409E+03        1.2623E+03
  88.00        4.1014E+03        1.1979E+03
  89.00        4.0625E+03        1.1355E+03
  90.00        4.0240E+03        1.0750E+03
  91.00        3.9861E+03        1.0166E+03
  92.00        3.9485E+03        9.6023E+02
  93.00        3.9114E+03        9.0582E+02
  94.00        3.8746E+03        8.5341E+02
  95.00        3.8381E+03        8.0297E+02
  96.00        3.8019E+03        7.5452E+02
  97.00        3.7660E+03        7.0803E+02
  98.00        3.7302E+03        6.6349E+02
  99.00        3.6946E+03        6.2089E+02
 100.00        3.6592E+03        5.8022E+02
 101.00        3.6239E+03        5.4145E+02
 102.00        3.5887E+03        5.0458E+02
 103.00        3.5535E+03        4.6957E+02
 104.00        3.5184E+03        4.3642E+02
 105.00        3.4832E+03        4.0510E+02
 106.00        3.4481E+03        3.7559E+02
 107.00        3.4129E+03        3.4786E+02
 108.00        3.3776E+03        3.2190E+02
 109.00        3.3423E+03        2.9768E+02
 110.00        3.3069E+03        2.7517E+02
 111.00        3.2713E+03        2.5434E+02
 112.00        3.2356E+03        2.3518E+02
 113.00        3.1998E+03        2.1764E+02
 114.00        3.1638E+03        2.0171E+02
 115.00        3.1277E+03        1.8735E+02
 116.00        3.0914E+03        1.7454E+02
 117.00        3.0549E+03        1.6324E+02
 118.00        3.0182E+03        1.5341E+02
 119.00        2.9813E+03        1.4504E+02
 120.00        2.9443E+03        1.3809E+02
 121.00        2.9070E+03        1.3251E+02
 122.00        2.8695E+03        1.2829E+02
 123.00        2.8318E+03        1.2538E+02
 124.00        2.7939E+03        1.2375E+02
 125.00        2.7558E+03        1.2336E+02
 126.00        2.7175E+03        1.2417E+02
 127.00        2.6791E+03        1.2616E+02
 128.00        2.6404E+03        1.2928E+02
 129.00        2.6016E+03        1.3349E+02
 130.00        2.5626E+03        1.3876E+02
 131.00        2.5234E+03        1.4504E+02
 132.00        2.4841E+03        1.5229E+02
 133.00        2.4447E+03        1.6048E+02
 134.00        2.4051E+03        1.6957E+02
 135.00        2.3654E+03        1.7950E+02
 136.00        2.3256E+03        1.9024E+02
 137.00        2.2857E+03        2.0175E+02
 138.00        2.2458E+03        2.1398E+02
 139.00        2.2058E+03        2.2689E+02
 140.00        2.1657E+03        2.4044E+02
 141.00        2.1257E+03        2.5457E+02
 142.00        2.0856E+03        2.6925E+02
 143.00        2.0456E+03        2.8442E+02
 144.00        2.0056E+03        3.0005E+02
 145.00        1.9657E+03        3.1608E+02
 146.00        1.9258E+03        3.3247E+02
 147.00        1.8861E+03        3.4917E+02
 148.00        1.8465E+03        3.6613E+02
 149.00        1.8070E+03        3.8331E+02
 150.00        1.7677E+03        4.0066E+02
 151.00        1.7286E+03        4.1812E+02
 152.00        1.6897E+03        4.3566E+02
 153.00        1.6510E+03        4.5322E+02
 154.00        1.6127E+03        4.7076E+02
 155.00        1.5745E+03        4.8823E+02
 156.00        1.5368E+03        5.0558E+02
 157.00        1.4993E+03        5.2276E+02
 158.00        1.4622E+03        5.3973E+02
 159.00        1.4255E+03        5.5644E+02
 160.00        1.3891E+03        5.7284E+02
 161.00        1.3532E+03        5.8890E+02
 162.00        1.3178E+03        6.0456E+02
 163.00        1.2828E+03        6.1978E+02
 164.00        1.2483E+03        6.3453E+02
 165.00        1.2143E+03        6.4875E+02
 166.00        1.1808E+03        6.6242E+02
 167.00        1.1479E+03        6.7548E+02
 168.00        1.1155E+03        6.8791E+02
 169.00        1.0838E+03        6.9967E+02
 170.00        1.0526E+03        7.1073E+02
 171.00        1.0220E+03        7.2105E+02
 172.00        9.9207E+02        7.3060E+02
 173.00        9.6277E+02        7.3935E+02
 174.00        9.3412E+02        7.4729E+02
 175.00        9.0614E+02        7.5438E+02
 176.00        8.7883E+02        7.6061E+02
 177.00        8.5221E+02        7.6595E+02
 178.00        8.2628E+02        7.7040E+02
 179.00        8.0105E+02        7.7392E+02
 180.00        7.7653E+02        7.7653E+02
